magnetometer.txt

All values are in micro-Tesla (uT). Factory calibration and temperature compensation are applied to this measurement
http://developer.android.com/guide/topics/sensors/sensors_overview.html

elapsed-time-system elapsed-time-sensor x y z estimated-bias-x estimated-bias-y estimated-bias-z
0.399 0.383 26.309204 22.90802 464.09454 13.416992 59.658813 468.38226
0.415 0.403 25.439453 23.29712 464.18304 13.416992 59.658813 468.38226
0.435 0.423 25.048828 23.29712 464.5645 13.416992 59.658813 468.38226
0.454 0.443 25.369263 21.905518 464.46075 13.416992 59.658813 468.38226
0.475 0.463 25.76294 22.200012 464.40125 13.416992 59.658813 468.38226
0.504 0.484 25.883484 22.798157 464.40125 13.416992 59.658813 468.38226
0.553 0.504 25.320435 21.340942 464.29138 13.416992 59.658813 468.38226
0.554 0.524 25.384521 22.311401 464.56757 13.416992 59.658813 468.38226
0.558 0.544 25.549316 23.130798 464.72626 13.416992 59.658813 468.38226
0.575 0.564 26.020813 21.954346 464.9582 13.416992 59.658813 468.38226
0.598 0.584 25.630188 22.987366 464.93835 13.416992 59.658813 468.38226
0.613 0.604 25.382996 23.62976 464.88953 13.416992 59.658813 468.38226
0.635 0.625 25.628662 22.892761 465.3717 13.416992 59.658813 468.38226
0.654 0.645 26.576233 23.242188 464.4638 13.416992 59.658813 468.38226
0.679 0.665 26.885986 23.46344 464.0747 13.416992 59.658813 468.38226
0.693 0.685 26.499939 22.82257 464.20135 13.416992 59.658813 468.38226
0.714 0.705 25.360107 21.864319 464.23798 13.416992 59.658813 468.38226
0.733 0.725 25.048828 21.632385 464.23798 13.416992 59.658813 468.38226
0.753 0.745 25.582886 22.698975 464.76135 13.416992 59.658813 468.38226
0.779 0.766 25.717163 22.964478 464.63165 13.416992 59.658813 468.38226
0.792 0.786 25.717163 22.964478 464.5645 13.416992 59.658813 468.38226
0.812 0.806 26.133728 21.160889 463.88702 13.416992 59.658813 468.38226
0.833 0.826 26.77002 21.902466 464.28986 13.416992 59.658813 468.38226
0.852 0.846 26.885986 22.131348 464.40125 13.416992 59.658813 468.38226
0.874 0.866 25.72937 24.147034 464.40125 13.416992 59.658813 468.38226
0.892 0.886 25.692749 23.458862 465.10315 13.416992 59.658813 468.38226
0.912 0.907 25.717163 23.29712 465.21606 13.416992 59.658813 468.38226
0.932 0.927 25.566101 22.84851 464.1922 13.416992 59.658813 468.38226
0.952 0.947 26.293945 22.055054 463.93127 13.416992 59.658813 468.38226
0.974 0.967 26.385498 21.965027 463.91296 13.416992 59.658813 468.38226
0.991 0.987 26.385498 23.820496 464.82086 13.416992 59.658813 468.38226
1.011 1.007 24.224854 22.117615 465.19165 13.416992 59.658813 468.38226
1.031 1.027 24.046326 21.965027 465.21606 13.416992 59.658813 468.38226
1.052 1.048 26.931763 23.243713 464.59045 13.416992 59.658813 468.38226
1.073 1.068 27.212524 23.136902 465.03143 13.416992 59.658813 468.38226
1.092 1.088 27.220154 23.130798 465.0528 13.416992 59.658813 468.38226
1.111 1.108 24.89624 23.460388 465.7013 13.416992 59.658813 468.38226
1.131 1.128 24.882507 22.148132 465.70435 13.416992 59.658813 468.38226
1.175 1.148 24.894714 22.132874 465.71198 13.416992 59.658813 468.38226
1.194 1.168 25.706482 22.323608 466.16974 13.416992 59.658813 468.38226
1.211 1.189 25.215149 23.46344 465.0528 13.416992 59.658813 468.38226
1.232 1.209 25.238037 23.454285 465.09094 13.416992 59.658813 468.38226
1.252 1.229 25.706482 23.231506 465.82336 13.416992 59.658813 468.38226
1.275 1.249 25.549316 22.131348 465.0528 13.416992 59.658813 468.38226
1.291 1.269 25.509644 22.247314 465.09094 13.416992 59.658813 468.38226
1.312 1.289 25.091553 23.527527 465.64178 13.416992 59.658813 468.38226
1.331 1.309 25.549316 22.465515 466.6809 13.416992 59.658813 468.38226
1.351 1.330 25.585938 22.465515 466.5741 13.416992 59.658813 468.38226
1.375 1.350 25.624084 22.483826 465.60822 13.416992 59.658813 468.38226
1.390 1.370 23.712158 22.631836 464.88953 13.416992 59.658813 468.38226
1.411 1.390 24.040222 22.444153 465.1657 13.416992 59.658813 468.38226
1.431 1.410 25.776672 21.472168 466.57867 13.416992 59.658813 468.38226
1.450 1.430 24.214172 22.465515 465.0528 13.416992 59.658813 468.38226
1.470 1.450 24.415588 22.37854 465.1947 13.416992 59.658813 468.38226
1.491 1.471 25.14038 21.844482 465.98663 13.416992 59.658813 468.38226
1.512 1.491 24.046326 21.299744 466.51917 13.416992 59.658813 468.38226
1.531 1.511 24.01123 21.401978 466.21857 13.416992 59.658813 468.38226
1.550 1.531 24.092102 22.361755 465.123 13.416992 59.658813 468.38226
1.569 1.551 24.882507 24.461365 465.3778 13.416992 59.658813 468.38226
1.590 1.571 25.119019 24.145508 465.06958 13.416992 59.658813 468.38226
1.610 1.591 25.842285 22.845459 464.19525 13.416992 59.658813 468.38226
1.629 1.612 25.717163 21.965027 464.5645 13.416992 59.658813 468.38226
1.651 1.632 25.717163 21.965027 464.5645 13.416992 59.658813 468.38226
1.670 1.652 26.127625 22.283936 465.14435 13.416992 59.658813 468.38226
1.690 1.672 27.220154 23.130798 466.6809 13.416992 59.658813 468.38226
1.711 1.692 27.018738 23.329163 466.29028 13.416992 59.658813 468.38226
1.730 1.712 26.805115 23.440552 465.1306 13.416992 59.658813 468.38226
1.749 1.732 27.386475 22.631836 464.5645 13.416992 59.658813 468.38226
1.771 1.752 26.997375 22.686768 464.72778 13.416992 59.658813 468.38226
1.789 1.773 26.048279 22.7417 464.88953 13.416992 59.658813 468.38226
1.808 1.793 25.717163 22.631836 464.5645 13.416992 59.658813 468.38226
1.828 1.813 25.776672 22.5708 464.62402 13.416992 59.658813 468.38226
1.851 1.833 25.822449 22.40448 464.66827 13.416992 59.658813 468.38226
1.868 1.853 25.717163 22.299194 464.5645 13.416992 59.658813 468.38226
1.889 1.873 25.584412 22.955322 464.95056 13.416992 59.658813 468.38226
1.909 1.893 25.448608 23.62976 465.6067 13.416992 59.658813 468.38226
1.928 1.914 25.549316 23.130798 465.70435 13.416992 59.658813 468.38226
1.949 1.934 25.691223 23.130798 465.42664 13.416992 59.658813 468.38226
1.968 1.954 26.242065 22.628784 465.26337 13.416992 59.658813 468.38226
1.989 1.974 26.71814 21.965027 465.54108 13.416992 59.658813 468.38226
2.009 1.994 26.257324 22.576904 465.39307 13.416992 59.658813 468.38226
2.029 2.014 25.639343 23.373413 465.7425 13.416992 59.658813 468.38226
2.049 2.034 25.549316 23.46344 466.3559 13.416992 59.658813 468.38226
2.069 2.055 26.123047 22.72644 465.7959 13.416992 59.658813 468.38226
2.088 2.075 26.635742 22.375488 464.65454 13.416992 59.658813 468.38226
2.109 2.095 26.551819 22.798157 464.0747 13.416992 59.658813 468.38226
2.130 2.115 26.376343 22.972107 464.5874 13.416992 59.658813 468.38226
2.151 2.135 26.12915 22.51892 464.96735 13.416992 59.658813 468.38226
2.167 2.155 26.05133 21.965027 464.88953 13.416992 59.658813 468.38226
2.187 2.175 25.585938 22.427368 464.98108 13.416992 59.658813 468.38226
2.208 2.196 25.12207 22.520447 465.68756 13.416992 59.658813 468.38226
2.228 2.216 25.048828 22.299194 466.19263 13.416992 59.658813 468.38226
2.247 2.236 24.85199 22.299194 464.66064 13.416992 59.658813 468.38226
2.267 2.256 24.517822 22.102356 463.7787 13.416992 59.658813 468.38226
2.287 2.276 24.380493 21.965027 463.91296 13.416992 59.658813 468.38226
2.306 2.296 25.830078 22.584534 464.9231 13.416992 59.658813 468.38226
2.327 2.316 24.858093 22.758484 465.74402 13.416992 59.658813 468.38226
2.346 2.337 23.712158 22.631836 465.8676 13.416992 59.658813 468.38226
2.367 2.357 24.583435 22.84851 466.0797 13.416992 59.658813 468.38226
2.387 2.377 25.263977 22.964478 465.13824 13.416992 59.658813 468.38226
2.407 2.397 25.382996 22.964478 464.5645 13.416992 59.658813 468.38226
2.426 2.417 25.724792 22.850037 464.6759 13.416992 59.658813 468.38226
2.449 2.437 25.08545 22.911072 465.2832 13.416992 59.658813 468.38226
2.466 2.457 24.71466 22.964478 465.54108 13.416992 59.658813 468.38226
2.487 2.478 25.78888 22.129822 466.35742 13.416992 59.658813 468.38226
2.507 2.498 25.502014 22.273254 466.21704 13.416992 59.658813 468.38226
2.534 2.518 25.215149 22.465515 466.02936 13.416992 59.658813 468.38226
2.547 2.538 24.71466 23.460388 467.25006 13.416992 59.658813 468.38226
2.566 2.558 24.54834 23.30017 464.99023 13.416992 59.658813 468.38226
2.587 2.578 24.54834 23.130798 464.0747 13.416992 59.658813 468.38226
2.607 2.598 25.58899 22.091675 466.10718 13.416992 59.658813 468.38226
2.627 2.619 25.883484 22.831726 465.92407 13.416992 59.658813 468.38226
2.647 2.639 25.883484 23.130798 465.70435 13.416992 59.658813 468.38226
2.666 2.659 25.883484 22.590637 465.70435 13.416992 59.658813 468.38226
2.686 2.679 25.479126 22.329712 464.52026 13.416992 59.658813 468.38226
2.707 2.699 25.382996 22.299194 464.23798 13.416992 59.658813 468.38226
2.726 2.719 24.253845 22.299194 465.61432 13.416992 59.658813 468.38226
2.750 2.739 26.008606 22.018433 465.04822 13.416992 59.658813 468.38226
2.766 2.760 26.385498 21.965027 464.88953 13.416992 59.658813 468.38226
2.786 2.780 26.09253 21.965027 465.74707 13.416992 59.658813 468.38226
2.806 2.800 25.759888 21.67511 465.5838 13.416992 59.658813 468.38226
2.826 2.820 25.717163 21.632385 465.54108 13.416992 59.658813 468.38226
2.846 2.840 25.717163 22.537231 464.95056 13.416992 59.658813 468.38226
2.866 2.860 25.564575 22.180176 466.5039 13.416992 59.658813 468.38226
2.886 2.880 25.549316 22.131348 466.6809 13.416992 59.658813 468.38226
2.907 2.901 26.489258 21.505737 464.54163 13.416992 59.658813 468.38226
2.926 2.921 25.149536 21.929932 466.37726 13.416992 59.658813 468.38226
2.946 2.941 25.048828 21.965027 466.51917 13.416992 59.658813 468.38226
2.965 2.961 26.182556 23.095703 465.72876 13.416992 59.658813 468.38226
2.986 2.981 25.572205 21.525574 464.13422 13.416992 59.658813 468.38226
3.006 3.001 25.549316 21.466064 464.0747 13.416992 59.658813 468.38226
3.054 3.021 26.048279 22.296143 464.24103 13.416992 59.658813 468.38226
3.054 3.042 24.719238 20.97168 465.5365 13.416992 59.658813 468.38226
3.085 3.062 24.705505 21.01593 465.5182 13.416992 59.658813 468.38226
3.106 3.082 24.380493 22.964478 464.5645 13.416992 59.658813 468.38226
3.133 3.102 24.380493 22.964478 464.5645 13.416992 59.658813 468.38226
3.148 3.122 24.490356 22.944641 464.58282 13.416992 59.658813 468.38226
3.166 3.142 26.298523 22.631836 464.93225 13.416992 59.658813 468.38226
3.185 3.162 25.048828 22.631836 465.54108 13.416992 59.658813 468.38226
3.211 3.183 25.236511 22.645569 465.52734 13.416992 59.658813 468.38226
3.228 3.203 27.04773 22.813416 465.27252 13.416992 59.658813 468.38226
3.247 3.223 25.382996 22.964478 464.23798 13.416992 59.658813 468.38226
3.268 3.243 25.39978 22.946167 464.2563 13.416992 59.658813 468.38226
3.288 3.263 25.46997 22.718811 464.40125 13.416992 59.658813 468.38226
3.304 3.283 24.882507 22.131348 464.40125 13.416992 59.658813 468.38226
3.324 3.303 25.0 21.966553 464.5172 13.416992 59.658813 468.38226
3.344 3.324 25.66681 21.115112 465.21606 13.416992 59.658813 468.38226
3.364 3.344 25.382996 21.965027 465.21606 13.416992 59.658813 468.38226
3.384 3.364 25.209045 22.137451 465.21606 13.416992 59.658813 468.38226
3.404 3.384 24.653625 22.872925 464.94904 13.416992 59.658813 468.38226
3.431 3.404 25.883484 22.465515 463.7497 13.416992 59.658813 468.38226
3.453 3.424 25.81482 22.669983 463.61694 13.416992 59.658813 468.38226
3.468 3.444 25.761414 23.181152 463.58185 13.416992 59.658813 468.38226
3.486 3.465 26.551819 22.131348 465.3778 13.416992 59.658813 468.38226
3.505 3.485 26.4328 22.564697 465.4953 13.416992 59.658813 468.38226
3.526 3.505 25.927734 23.191833 465.5899 13.416992 59.658813 468.38226
3.546 3.525 25.549316 20.800781 464.72626 13.416992 59.658813 468.38226
3.565 3.545 25.683594 21.383667 465.20996 13.416992 59.658813 468.38226
3.585 3.565 26.05133 22.413635 465.802 13.416992 59.658813 468.38226
3.609 3.585 26.05133 20.967102 463.91296 13.416992 59.658813 468.38226
3.624 3.606 25.79956 21.315002 463.9618 13.416992 59.658813 468.38226
3.646 3.626 25.675964 22.488403 464.22577 13.416992 59.658813 468.38226
3.665 3.646 26.71814 23.29712 464.5645 13.416992 59.658813 468.38226
3.687 3.666 26.550293 23.129272 464.61945 13.416992 59.658813 468.38226
3.705 3.686 25.822449 22.51587 464.4516 13.416992 59.658813 468.38226
3.724 3.706 25.048828 21.965027 463.91296 13.416992 59.658813 468.38226
3.747 3.726 25.53711 22.451782 464.74762 13.416992 59.658813 468.38226
3.770 3.747 25.891113 23.29712 465.35187 13.416992 59.658813 468.38226
3.785 3.767 25.048828 23.29712 463.91296 13.416992 59.658813 468.38226
3.809 3.787 25.845337 23.428345 463.65356 13.416992 59.658813 468.38226
3.841 3.807 26.515198 23.361206 463.39264 13.416992 59.658813 468.38226
3.845 3.827 25.717163 22.964478 463.58643 13.416992 59.658813 468.38226
3.861 3.847 25.572205 23.106384 463.58643 13.416992 59.658813 468.38226
3.882 3.867 26.394653 23.008728 463.72833 13.416992 59.658813 468.38226
3.901 3.888 27.720642 22.631836 463.91296 13.416992 59.658813 468.38226
3.921 3.908 26.792908 22.631836 463.76343 13.416992 59.658813 468.38226
3.942 3.928 25.793457 22.70813 463.66272 13.416992 59.658813 468.38226
3.961 3.948 25.883484 22.798157 463.7497 13.416992 59.658813 468.38226
3.981 3.968 26.048279 23.12622 462.94403 13.416992 59.658813 468.38226
4.002 3.988 26.133728 22.885132 463.01117 13.416992 59.658813 468.38226
4.022 4.008 26.05133 22.299194 463.91296 13.416992 59.658813 468.38226
4.041 4.028 25.610352 22.38617 463.9984 13.416992 59.658813 468.38226
4.079 4.049 24.775696 22.55249 463.81836 13.416992 59.658813 468.38226
4.119 4.069 24.380493 22.631836 463.58643 13.416992 59.658813 468.38226
4.119 4.089 24.56665 22.445679 463.58643 13.416992 59.658813 468.38226
4.122 4.109 24.435425 22.763062 463.4964 13.416992 59.658813 468.38226
4.141 4.129 24.214172 23.130798 463.42316 13.416992 59.658813 468.38226
4.160 4.149 24.707031 23.425293 463.32855 13.416992 59.658813 468.38226
4.181 4.169 24.949646 22.744751 463.35754 13.416992 59.658813 468.38226
4.201 4.190 24.882507 22.131348 463.42316 13.416992 59.658813 468.38226
4.221 4.210 25.088501 22.75238 464.2334 13.416992 59.658813 468.38226
4.242 4.230 25.215149 22.717285 464.3219 13.416992 59.658813 468.38226
4.261 4.250 25.215149 22.465515 464.0747 13.416992 59.658813 468.38226
4.281 4.270 25.105286 21.702576 463.5437 13.416992 59.658813 468.38226
4.301 4.290 26.246643 21.84143 463.79242 13.416992 59.658813 468.38226
4.323 4.310 26.885986 22.131348 464.0747 13.416992 59.658813 468.38226
4.343 4.331 24.594116 21.902466 464.0747 13.416992 59.658813 468.38226
4.368 4.351 24.699402 22.718811 463.62457 13.416992 59.658813 468.38226
4.389 4.371 25.215149 23.130798 463.42316 13.416992 59.658813 468.38226
4.405 4.391 24.615479 22.532654 464.0091 13.416992 59.658813 468.38226
4.426 4.411 24.380493 22.299194 464.7049 13.416992 59.658813 468.38226
4.444 4.431 24.380493 22.299194 464.88953 13.416992 59.658813 468.38226
4.470 4.451 25.012207 22.424316 465.2603 13.416992 59.658813 468.38226
4.485 4.472 24.482727 23.4375 464.90173 13.416992 59.658813 468.38226
4.506 4.492 24.214172 23.796082 464.72626 13.416992 59.658813 468.38226
4.536 4.512 25.605774 23.164368 464.1098 13.416992 59.658813 468.38226
4.546 4.532 24.664307 22.83783 463.5437 13.416992 59.658813 468.38226
4.569 4.552 24.214172 22.798157 463.42316 13.416992 59.658813 468.38226
4.581 4.572 24.214172 22.54181 464.17694 13.416992 59.658813 468.38226
4.604 4.592 25.001526 23.513794 464.91547 13.416992 59.658813 468.38226
4.621 4.613 25.215149 23.796082 465.0528 13.416992 59.658813 468.38226
4.640 4.633 24.801636 21.464539 464.91852 13.416992 59.658813 468.38226
4.660 4.653 24.850464 21.913147 463.96332 13.416992 59.658813 468.38226
4.681 4.673 24.882507 22.131348 463.7497 13.416992 59.658813 468.38226
4.700 4.693 24.45221 22.27478 464.72626 13.416992 59.658813 468.38226
4.720 4.713 23.672485 21.592712 463.92517 13.416992 59.658813 468.38226
4.740 4.733 23.545837 21.466064 463.7497 13.416992 59.658813 468.38226
4.760 4.754 24.58191 23.384094 464.18304 13.416992 59.658813 468.38226
4.780 4.774 23.536682 22.749329 464.52637 13.416992 59.658813 468.38226
4.802 4.794 23.379517 22.631836 464.5645 13.416992 59.658813 468.38226
4.824 4.814 23.06366 23.571777 464.87122 13.416992 59.658813 468.38226
4.848 4.834 23.960876 23.62976 464.29443 13.416992 59.658813 468.38226
4.863 4.854 24.046326 23.62976 464.23798 13.416992 59.658813 468.38226
4.882 4.874 24.362183 22.366333 464.23798 13.416992 59.658813 468.38226
4.916 4.895 23.440552 22.610474 464.54468 13.416992 59.658813 468.38226
4.924 4.915 23.379517 22.631836 464.5645 13.416992 59.658813 468.38226
4.940 4.935 23.704529 20.999146 463.28735 13.416992 59.658813 468.38226
4.959 4.955 25.341797 22.265625 464.85138 13.416992 59.658813 468.38226
4.981 4.975 25.382996 22.299194 464.88953 13.416992 59.658813 468.38226
5.018 4.995 24.690247 22.639465 464.22577 13.416992 59.658813 468.38226
5.039 5.015 23.21167 23.130798 463.42316 13.416992 59.658813 468.38226
5.060 5.036 23.345947 23.117065 463.42316 13.416992 59.658813 468.38226
5.079 5.056 26.843262 22.772217 463.4964 13.416992 59.658813 468.38226
5.100 5.076 26.05133 22.299194 464.88953 13.416992 59.658813 468.38226
5.118 5.096 26.013184 22.261047 464.95056 13.416992 59.658813 468.38226
5.139 5.116 25.514221 21.798706 465.5716 13.416992 59.658813 468.38226
5.160 5.136 25.215149 21.798706 464.40125 13.416992 59.658813 468.38226
5.178 5.156 25.16632 21.975708 464.35394 13.416992 59.658813 468.38226
5.200 5.177 24.60022 23.516846 464.02435 13.416992 59.658813 468.38226
5.220 5.197 23.712158 22.631836 464.88953 13.416992 59.658813 468.38226
5.240 5.217 23.970032 22.68219 464.9414 13.416992 59.658813 468.38226
5.262 5.237 25.14801 22.917175 465.1718 13.416992 59.658813 468.38226
5.281 5.257 23.712158 22.631836 464.88953 13.416992 59.658813 468.38226
5.305 5.277 24.150085 22.685242 464.5691 13.416992 59.658813 468.38226
5.321 5.297 25.935364 22.93396 463.4323 13.416992 59.658813 468.38226
5.340 5.318 23.880005 22.798157 465.70435 13.416992 59.658813 468.38226
5.366 5.338 23.880005 23.060608 465.448 13.416992 59.658813 468.38226
5.384 5.358 23.298645 23.754883 464.6347 13.416992 59.658813 468.38226
5.401 5.378 21.040344 22.299194 465.54108 13.416992 59.658813 468.38226
5.430 5.398 20.600891 22.299194 465.18555 13.416992 59.658813 468.38226
5.443 5.418 19.102478 22.299194 464.36462 13.416992 59.658813 468.38226
5.465 5.438 19.371033 22.299194 466.19263 13.416992 59.658813 468.38226
5.484 5.459 19.326782 22.167969 465.72418 13.416992 59.658813 468.38226
5.501 5.479 18.84613 21.798706 465.1001 13.416992 59.658813 468.38226
5.530 5.499 17.868042 21.798706 467.00745 13.416992 59.658813 468.38226
5.541 5.519 17.36145 22.085571 466.4444 13.416992 59.658813 468.38226
5.561 5.539 15.730286 22.628784 464.89105 13.416992 59.658813 468.38226
5.579 5.559 16.19873 21.466064 466.02936 13.416992 59.658813 468.38226
5.602 5.579 16.525269 22.009277 465.92407 13.416992 59.658813 468.38226
5.633 5.600 17.10205 23.226929 466.08582 13.416992 59.658813 468.38226
5.644 5.620 16.86554 23.46344 467.00745 13.416992 59.658813 468.38226
5.665 5.640 16.923523 23.40393 466.2567 13.416992 59.658813 468.38226
5.680 5.660 17.460632 23.600769 465.06958 13.416992 59.658813 468.38226
5.697 5.680 18.20221 24.128723 465.3778 13.416992 59.658813 468.38226
5.716 5.700 17.871094 23.799133 465.5716 13.416992 59.658813 468.38226
5.737 5.720 17.167664 23.362732 465.80353 13.416992 59.658813 468.38226
5.758 5.741 16.86554 23.46344 465.70435 13.416992 59.658813 468.38226
5.776 5.761 17.434692 23.745728 466.12244 13.416992 59.658813 468.38226
5.797 5.781 17.700195 23.342896 465.63263 13.416992 59.658813 468.38226
5.816 5.801 17.033386 22.299194 464.23798 13.416992 59.658813 468.38226
5.836 5.821 16.804504 22.677612 464.46228 13.416992 59.658813 468.38226
5.857 5.841 16.30249 23.661804 464.50348 13.416992 59.658813 468.38226
5.876 5.861 16.030884 24.295044 464.23798 13.416992 59.658813 468.38226
5.899 5.882 16.932678 24.212646 464.15863 13.416992 59.658813 468.38226
5.918 5.902 17.373657 24.128723 463.75427 13.416992 59.658813 468.38226
5.938 5.922 16.86554 24.128723 463.42316 13.416992 59.658813 468.38226
